,0,1,2
0,1631.496869,1520.884628,1563.357843
1,1652.750317,1529.675674,1575.820245
2,1663.730704,1504.043544,1548.7061
3,1633.68621,1498.890173,1558.238153
4,1643.218264,1501.820521,1561.909509
5,1659.352022,1512.83459,1572.148889
6,1662.989697,1495.959824,1576.561253
7,1664.471712,1487.168778,1590.471988
8,1682.794812,1519.402613,1613.17377
9,1697.446555,1526.004318,1621.964816
10,1690.84485,1516.472264,1632.978885
11,1653.491325,1499.63118,1632.978885
12,1657.870007,1536.984705,1594.884352
13,1657.870007,1551.636448,1598.522026
14,1659.352022,1579.491601,1600.004042
15,1652.00931,1587.54164,1600.74505
16,1657.870007,1620.516482,1614.655785
17,1647.630628,1652.00931,1632.978885
18,1635.909233,1728.939382,1633.68621
19,1601.452375,1757.501861,1633.68621
20,1573.630904,1821.969531,1606.605747
21,1561.168502,1868.855109,1599.263034
22,1553.859471,1901.829952,1586.093306
23,1569.959548,1947.267197,1577.30226
24,1550.929123,2003.651147,1583.870283
25,1542.138077,2047.606377,1607.313072
26,1536.277379,2077.650871,1556.78982
27,1519.402613,2126.72579,1548.7061
28,1534.054356,2158.2523,1558.238153
29,1510.611567,2177.282725,1565.580866
30,1549.447107,2170.68102,1558.979161
31,1540.656061,2182.402414,1501.113196
32,1552.377456,2190.486135,1491.581142
33,1591.212996,2167.750671,1496.700832
34,1610.243421,2144.307882,1466.656337
35,1653.491325,2104.024009,1431.492154
36,1726.009034,2060.068779,1450.556261
37,1736.98942,1976.570684,1432.233161
38,1813.919493,1947.974523,1378.745878
39,1823.451547,1853.496041,1402.188667
40,1891.590573,1783.874999,1353.113748
41,1939.183477,1708.426942,1353.113748
42,1980.949366,1646.88962,1353.113748
43,2023.456262,1566.288191,1341.392353
44,2057.13843,1523.073969,1315.019216
45,2084.993584,1452.004594,1297.437124
46,2140.670208,1346.512043,1344.322702
47,2145.04889,1317.949564,1340.651346
48,2139.188192,1230.039105,1325.292277
49,2142.859549,1170.691124,1374.367196
50,2150.909587,1128.21791,1392.690296
51,2139.9292,1082.039657,1386.829599
52,2117.934744,1041.014776,1447.625912
53,2071.790174,1041.014776,1488.650793
54,2043.968703,989.7505162,1506.232885
55,1972.15832,980.2184625,1550.929123
56,1938.476151,965.5667193,1602.193383
57,1879.869178,940.6755969,1690.84485
58,1819.039182,933.3328842,1709.875275
59,1749.451823,904.0293978,1761.914225
60,1699.635896,893.0490109,1811.730152
61,1588.282647,887.9293213,1860.805071
62,1559.720169,881.3276163,1906.949642
63,1456.416958,897.4276928,1954.576228
64,1391.20828,898.9097082,2007.322503
65,1339.94402,908.4417618,2010.99386
66,1261.531932,928.2131947,2055.690097
67,1194.874921,933.3328842,2084.252576
68,1145.058994,936.2632329,2064.481143
69,1086.452021,937.0042406,2078.391879
70,1009.521949,942.1239302,2070.34184
71,978.7701293,958.9650143,2046.899051
72,931.1435433,969.2380757,2050.536725
73,893.7900186,970.6864089,2008.804519
74,856.4028118,980.2184625,1963.367274
75,819.7902948,993.4218725,1939.183477
76,789.004793,991.9398571,1909.87999
77,739.9298737,1019.79501,1863.73542
78,745.790571,1042.496792,1808.799803
79,701.0943336,1040.307451,1805.128447
80,736.9995251,1084.970006,1750.19283
81,717.2280923,1089.38237,1700.376903
82,714.2977436,1095.984075,1643.959272
83,695.9746441,1111.343144,1619.034467
84,747.979912,1171.432132,1602.193383
85,719.4174332,1190.462557,1542.845402
86,773.612042,1199.994611,1482.790096
87,758.9602988,1232.969454,1486.461452
88,778.0244061,1230.780113,1423.442116
89,834.442038,1248.362205,1382.417234
90,857.1438195,1298.885457,1352.37274
91,879.1045932,1297.437124,1334.790648
92,909.1490874,1306.22817,1300.367472
93,915.0097847,1315.760223,1299.626465
94,916.4918001,1356.785104,1287.164062
95,961.895363,1330.411967,1241.7605
96,993.4218725,1340.651346,1254.222902
97,1012.452298,1375.108204,1190.462557
98,1046.168148,1375.108204,1208.785657
99,1104.034113,1370.69584,1150.178684
100,1115.0145,1390.467273,1136.267948
101,1125.287562,1408.790372,1139.198297
102,1185.342868,1410.979713,1108.412795
103,1189.014224,1405.860024,1073.989619
104,1212.457013,1367.765491,1078.401983
105,1274.735342,1396.32797,1062.268225
106,1278.373017,1412.461729,1046.168148
107,1286.456737,1372.885181,1017.571987
108,1309.899526,1386.829599,1003.661252
109,1350.924407,1378.745878,961.895363
110,1337.720997,1365.57615,969.9790834
111,1353.113748,1372.177855,939.1935815
112,1386.829599,1405.860024,934.0738919
113,1421.993782,1397.809985,893.0490109
114,1412.461729,1365.57615,917.2328078
115,1413.202736,1386.088591,908.4417618
116,1404.41169,1408.790372,906.9597464
117,1434.422502,1408.790372,909.1490874
118,1418.322426,1365.57615,904.7704055
119,1455.675951,1379.486886,880.5866086
120,1425.631456,1409.53138,934.0738919
121,1431.492154,1406.601031,925.282846
122,1435.16351,1405.119016,956.7756734
123,1452.004594,1358.233438,970.6864089
124,1434.422502,1368.506499,993.4218725
125,1416.133085,1393.397621,1008.073616
126,1462.277656,1392.690296,1051.287838
127,1424.183123,1356.044097,1073.989619
128,1461.536648,1377.297545,1085.711014
129,1438.834866,1352.37274,1102.552098
130,1464.466997,1348.735066,1115.755508
131,1473.258042,1369.954832,1122.357213
132,1468.879361,1374.367196,1168.501783
133,1504.043544,1362.645802,1161.159071
134,1482.790096,1386.829599,1158.96973
135,1482.790096,1370.69584,1216.835695
136,1490.099127,1367.024484,1187.532209
137,1500.372188,1407.342039,1237.348136
138,1516.472264,1417.581418,1199.253603
139,1520.143621,1419.063434,1245.431856
140,1479.11874,1387.536924,1247.621197
141,1494.511491,1429.302813,1245.431856
142,1471.068702,1437.352851,1218.31771
143,1468.879361,1408.790372,1237.348136
144,1500.372188,1424.183123,1265.944296
145,1475.447383,1457.865292,1246.880189
146,1463.018663,1470.327694,1221.989067
147,1465.208004,1473.258042,1227.108756
148,1485.720445,1438.093859,1262.27294
149,1472.517035,1441.765215,1237.348136
150,1454.227617,1473.99905,1260.083599
151,1455.675951,1487.168778,1219.766044
152,1466.656337,1452.745602,1219.058718
153,1445.436571,1474.740058,1248.362205
154,1487.909786,1491.581142,1259.342591
155,1493.770483,1504.043544,1217.576703
156,1468.138353,1508.422226,1244.690848
157,1491.581142,1509.163234,1242.501507
158,1525.26331,1476.929399,1222.696392
159,1519.402613,1497.441839,1263.013948
160,1547.257766,1523.073969,1227.849764
161,1567.029199,1481.308081,1262.27294
162,1596.332686,1482.049088,1273.994335
163,1646.148612,1490.099127,1242.501507
164,1689.362834,1495.252498,1258.601584
165,1709.875275,1489.391801,1301.10848
166,1723.819693,1496.700832,1280.59604
167,1740.660777,1508.422226,1276.924683
168,1777.306976,1522.332962,1294.506775
169,1810.248137,1530.416682,1317.208557
170,1824.89988,1523.073969,1325.999603
171,1852.755033,1507.681218,1331.8603
172,1862.287087,1493.029475,1328.222626
173,1871.785458,1497.441839,1348.735066
174,1905.501309,1497.441839,1364.094135
175,1878.387163,1517.95428,1356.785104
176,1877.646155,1541.397069,1366.317158
177,1868.147784,1542.845402,1398.550993
178,1868.855109,1544.327418,1391.949288
179,1876.93883,1547.257766,1380.227894
180,1851.273018,1547.257766,1427.85448
181,1837.362282,1551.636448,1430.784828
182,1805.869455,1560.427494,1438.834866
183,1783.167673,1560.427494,1419.063434
184,1746.521474,1569.21854,1416.133085
185,1750.900156,1539.915054,1437.352851
186,1697.446555,1547.998774,1450.556261
187,1702.566244,1576.561253,1442.506223
188,1663.730704,1590.471988,1471.068702
189,1621.964816,1593.402337,1457.865292
190,1576.561253,1582.42195,1472.517035
191,1550.929123,1572.148889,1488.650793
192,1539.207728,1561.168502,1458.606299
193,1490.099127,1594.143345,1504.75087
194,1477.670407,1581.680942,1480.600755
195,1472.517035,1581.680942,1507.681218
196,1419.063434,1583.870283,1483.531104
197,1418.322426,1593.402337,1517.213272
198,1375.108204,1580.939935,1503.302537
199,1333.342315,1556.78982,1501.820521
200,1303.297821,1575.820245,1528.193659
201,1312.829875,1577.30226,1501.113196
202,1284.233714,1545.068425,1493.029475
203,1208.785657,1522.332962,1528.934667
204,1186.083875,1534.054356,1517.213272
205,1129.666243,1510.611567,1506.973893
206,1120.13419,1488.650793,1500.372188
207,1080.591324,1470.327694,1512.83459
208,1016.864662,1459.347307,1497.441839
209,967.7560603,1463.725989,1530.416682
210,895.2383519,1452.004594,1489.391801
211,887.1883136,1394.879637,1524.555985
212,836.631379,1417.581418,1488.650793
213,767.7513448,1372.885181,1506.232885
214,752.392276,1389.759947,1525.26331
215,687.1835981,1359.715453,1482.790096
216,669.6015063,1315.760223,1519.402613
217,628.5766252,1331.152974,1480.600755
218,572.1589933,1309.899526,1476.188391
219,554.5769014,1286.456737,1512.83459
220,483.5075263,1312.829875,1499.63118
221,498.9002772,1307.676503,1469.586686
222,468.8557831,1271.804994,1469.586686
223,410.2488102,1273.994335,1498.890173
224,379.4969905,1272.512319,1504.75087
225,392.6667183,1275.442668,1485.720445
226,388.2880364,1283.526388,1484.979437
227,372.1542778,1292.317434,1523.814977
228,367.0345882,1345.06371,1506.973893
229,361.1738909,1349.442392,1528.934667
230,361.1738909,1331.152974,1544.327418
231,358.2435423,1390.467273,1539.207728
232,370.7059446,1375.108204,1526.004318
233,386.0650133,1425.631456,1513.541916
234,373.6362932,1425.631456,1546.516759
235,424.1595457,1448.36692,1510.611567
236,435.1736147,1484.238429,1540.656061
237,471.0788062,1493.029475,1525.26331
238,529.6857791,1496.700832,1509.904242
239,538.476825,1516.472264,1509.163234
240,597.0837979,1553.118464,1484.979437
241,685.7015827,1585.352299,1457.157966
242,734.8101841,1593.402337,1452.004594
243,802.9155285,1573.630904,1471.068702
244,883.5169573,1575.079237,1431.492154
245,927.4721869,1570.700555,1417.581418
246,1018.312995,1592.661329,1446.143897
247,1085.711014,1601.452375,1409.53138
248,1140.64663,1580.232609,1451.297269
249,1182.412519,1564.09885,1427.113472
250,1272.512319,1550.188115,1462.277656
251,1340.651346,1536.984705,1430.784828
252,1394.138629,1523.814977,1478.377732
253,1435.904518,1491.581142,1490.099127
254,1455.675951,1471.809709,1487.909786
255,1530.416682,1405.860024,1515.023931
256,1519.402613,1390.467273,1548.7061
257,1577.30226,1379.486886,1578.009586
258,1550.188115,1301.10848,1656.421674
259,1578.009586,1306.969177,1666.661053
260,1569.21854,1270.322978,1729.68039
261,1563.357843,1232.969454,1748.710815
262,1574.371912,1194.133914,1792.666045
263,1531.865015,1111.343144,1836.621274
264,1490.840134,1094.50206,1882.058519
265,1498.890173,1054.218186,1942.854833
266,1449.074246,1034.446754,1974.347661
267,1425.631456,967.7560603,1991.929752
268,1382.417234,972.1684243,2003.651147
269,1333.342315,953.8453247,2047.606377
270,1274.735342,931.884551,2035.884982
271,1213.905346,898.9097082,2032.954633
272,1165.571435,864.45285,2043.227695
273,1141.387638,875.4669191,2045.417036
274,1090.830703,862.2635091,2021.974247
275,1055.66652,866.6758731,1973.640335
276,983.8898189,850.5421145,1926.754757
277,987.5611752,898.9097082,1886.437201
278,945.7952865,917.9401333,1846.894336
279,926.7311792,913.5614514,1799.26775
280,902.5810646,956.0346657,1750.900156
281,889.3776546,988.2685008,1667.402061
282,887.1883136,1004.402259,1594.884352
283,861.5225014,1053.477179,1558.979161
284,890.85967,1085.711014,1441.024207
285,888.6366469,1110.635818,1364.094135
286,907.7007541,1142.128646,1284.974722
287,897.4276928,1183.894534,1221.248059
288,964.1183861,1241.019492,1134.078607
289,979.4774548,1258.601584,1071.059271
290,1024.9147,1283.526388,1007.332608
291,1057.148535,1346.512043,916.4918001
292,1084.970006,1338.462005,881.3276163
293,1095.243067,1366.317158,825.6509921
294,1179.48217,1404.41169,732.587161
295,1207.337324,1441.765215,717.2280923
296,1265.203289,1437.352851,641.7463531
297,1307.676503,1453.48661,621.2339126
298,1348.735066,1486.461452,589.7410852
299,1374.367196,1506.232885,575.8303497
300,1400.740334,1522.332962,539.1841505
301,1422.701108,1526.004318,568.487637
302,1493.029475,1529.675674,575.8303497
303,1514.282923,1528.193659,564.8499628
304,1522.332962,1532.606023,595.6017825
305,1575.079237,1536.277379,612.4428666
306,1602.193383,1523.814977,634.4373225
307,1609.536095,1493.029475,660.0694526
308,1632.978885,1481.308081,655.6907707
309,1661.541363,1479.11874,712.0747205
310,1671.073417,1477.670407,738.4478583
311,1684.243145,1440.2832,775.0940575
312,1708.426942,1421.993782,843.233084
313,1741.401784,1429.302813,860.8151758
314,1705.496593,1412.461729,923.0935051
315,1715.028647,1378.038553,942.1239302
316,1725.268026,1387.536924,994.8702058
317,1713.546631,1342.874369,1046.168148
318,1678.382448,1369.247507,1076.919968
319,1646.88962,1334.083323,1111.343144
320,1630.048536,1347.253051,1134.078607
321,1605.864739,1321.620921,1164.830427
322,1596.332686,1303.297821,1176.551822
323,1563.357843,1295.955108,1211.716005
324,1555.307804,1291.576427,1252.740886
325,1500.372188,1299.626465,1283.526388
326,1507.681218,1327.481618,1293.02476
327,1455.675951,1320.138905,1292.317434
328,1420.511767,1301.10848,1320.138905
329,1410.272388,1286.456737,1349.442392
330,1391.949288,1312.829875,1353.854756
331,1368.506499,1295.247783,1364.094135
332,1355.303089,1284.974722,1376.556537
333,1298.885457,1273.994335,1399.999326
334,1282.044373,1314.278208,1391.949288
335,1287.164062,1294.506775,1396.32797
336,1295.247783,1295.247783,1394.879637
337,1242.501507,1298.885457,1436.645525
338,1264.462281,1279.114024,1437.352851
339,1235.158795,1322.328246,1412.461729
340,1268.133637,1290.835419,1433.715177
341,1259.342591,1299.626465,1425.631456
342,1252.740886,1341.392353,1411.720721
343,1279.855032,1325.999603,1448.36692
344,1249.06953,1343.581694,1408.790372
345,1259.342591,1369.247507,1434.422502
346,1306.22817,1350.924407,1424.924131
347,1273.253327,1361.904794,1432.974169
348,1294.506775,1351.665415,1411.720721
349,1311.347859,1399.999326,1414.65107
350,1320.879913,1378.038553,1414.65107
351,1336.272664,1382.417234,1397.068978
352,1361.904794,1380.968901,1427.113472
353,1369.247507,1423.442116,1408.790372
354,1350.183399,1394.138629,1377.297545
355,1357.526112,1404.41169,1416.840411
356,1394.879637,1421.252775,1413.202736
357,1425.631456,1449.815253,1371.436848
358,1408.049365,1423.442116,1413.910062
359,1410.272388,1465.949012,1372.885181
360,1450.556261,1473.99905,1388.277932
361,1432.233161,1441.765215,1391.20828
362,1444.695564,1451.297269,1397.068978
363,1481.308081,1458.606299,1424.183123
364,1453.48661,1494.511491,1397.809985
365,1503.302537,1498.182847,1444.695564
366,1482.790096,1479.859747,1411.720721
367,1512.093583,1494.511491,1427.85448
368,1522.332962,1493.770483,1451.297269
369,1512.093583,1525.26331,1447.625912
370,1533.347031,1512.093583,1447.625912
371,1542.845402,1495.252498,1442.506223
372,1521.625636,1512.83459,1449.074246
373,1553.859471,1530.416682,1493.770483
374,1565.580866,1543.58641,1473.99905
375,1547.998774,1547.257766,1458.606299
376,1547.998774,1555.307804,1456.416958
377,1551.636448,1551.636448,1458.606299
378,1557.497145,1558.979161,1479.11874
379,1571.441563,1524.555985,1487.168778
380,1567.029199,1522.332962,1457.157966
381,1568.511214,1536.277379,1452.745602
382,1556.048812,1535.536372,1452.745602
383,1549.447107,1553.118464,1449.815253
384,1556.78982,1517.95428,1452.004594
385,1551.636448,1495.959824,1490.840134
386,1553.118464,1504.043544,1488.650793
387,1547.257766,1506.232885,1482.790096
388,1496.700832,1448.36692,1482.790096
389,1513.541916,1464.466997,1471.068702
390,1460.79564,1416.840411,1461.536648
391,1444.695564,1424.183123,1442.506223
392,1444.695564,1399.999326,1451.297269
393,1416.840411,1393.397621,1448.36692
394,1349.442392,1401.481342,1463.725989
395,1341.392353,1353.854756,1446.884905
396,1333.342315,1358.233438,1446.143897
397,1278.373017,1335.531656,1467.397345
398,1238.089143,1378.038553,1477.670407
399,1233.710461,1338.462005,1475.447383
400,1218.31771,1371.436848,1450.556261
401,1172.880465,1386.829599,1465.208004
402,1147.248335,1378.038553,1479.859747
403,1167.760776,1394.138629,1487.909786
404,1158.96973,1452.745602,1489.391801
405,1147.989343,1449.074246,1465.949012
406,1135.526941,1501.820521,1475.447383
407,1143.576979,1493.029475,1471.809709
408,1149.437676,1543.58641,1465.208004
409,1155.298373,1591.954004,1487.909786
410,1168.501783,1623.446831,1486.461452
411,1161.900078,1625.636172,1528.193659
412,1233.710461,1660.059348,1522.332962
413,1231.487438,1695.964539,1509.163234
414,1257.15325,1739.919769,1524.555985
415,1315.760223,1776.565968,1554.566797
416,1385.347583,1767.033915,1558.979161
417,1425.631456,1811.730152,1563.357843
418,1435.16351,1800.008757,1613.914777
419,1479.11874,1850.565692,1607.313072
420,1558.238153,1824.89988,1604.382724
421,1564.839858,1856.426389,1645.407605
422,1608.05408,1835.913949,1652.750317
423,1646.88962,1822.710539,1639.546907
424,1695.964539,1819.039182,1675.452099
425,1717.958995,1802.939106,1654.939658
426,1734.800079,1822.710539,1678.382448
427,1790.476704,1802.198098,1686.432486
428,1777.306976,1755.31252,1682.794812
429,1790.476704,1734.059072,1662.989697
430,1801.457091,1709.167949,1645.407605
431,1780.94465,1678.382448,1679.864463
432,1758.242869,1653.491325,1637.357567
433,1778.755309,1616.104118,1652.00931
434,1758.242869,1602.193383,1649.819969
435,1730.387715,1576.561253,1631.496869
436,1705.496593,1527.486333,1638.098574
437,1638.098574,1506.973893,1619.034467
438,1616.845126,1498.890173,1655.680666
439,1578.750594,1461.536648,1635.909233
440,1577.30226,1443.213548,1645.407605
441,1508.422226,1393.397621,1621.964816
442,1460.088315,1388.277932,1658.611015
443,1430.784828,1367.024484,1630.755862
444,1386.829599,1345.804718,1674.003766
445,1358.974445,1313.5372,1659.352022
446,1341.392353,1325.292277,1686.432486
447,1293.02476,1323.069254,1723.819693
448,1253.481894,1304.038829,1756.053528
449,1263.721273,1279.855032,1769.964263
450,1226.367749,1243.949841,1788.287363
451,1189.755232,1236.64081,1814.660501
452,1167.019768,1221.248059,1856.426389
453,1147.248335,1207.337324,1897.45127
454,1139.198297,1211.716005,1898.899604
455,1157.521397,1228.55709,1954.576228
456,1147.248335,1189.755232,1941.4065
457,1134.785933,1158.96973,1977.278009
458,1142.869653,1156.039381,1976.570684
459,1144.317987,1164.830427,1971.417312
460,1145.800002,1167.760776,1970.709986
461,1149.437676,1143.576979,1955.317236
462,1137.008956,1114.273492,1916.481695
463,1137.008956,1114.273492,1921.601385
464,1133.3376,1137.008956,1868.855109
465,1189.755232,1098.914424,1835.913949
466,1187.532209,1128.925236,1808.799803
467,1180.223178,1106.964462,1750.900156
468,1223.4374,1094.50206,1714.287639
469,1230.780113,1116.496516,1630.048536
470,1273.994335,1104.034113,1578.750594
471,1260.790925,1118.685857,1519.402613
472,1299.626465,1097.432408,1482.049088
473,1309.158518,1137.716282,1443.213548
474,1320.879913,1118.685857,1390.467273
475,1343.581694,1164.830427,1293.02476
476,1391.949288,1166.312443,1285.715729
477,1419.063434,1153.85004,1212.457013
478,1432.974169,1178.741163,1197.80527
479,1429.302813,1160.451745,1147.248335
480,1446.884905,1169.242791,1117.203841
481,1490.840134,1204.406975,1064.457566
482,1482.049088,1235.158795,1043.237799
483,1531.124008,1208.785657,1016.123654
484,1549.447107,1217.576703,977.2881139
485,1556.048812,1230.780113,999.9898953
486,1535.536372,1243.208833,947.2436198
487,1550.929123,1293.765767,977.2881139
488,1558.238153,1292.317434,957.5166811
489,1580.939935,1302.556813,945.7952865
490,1583.162958,1296.696116,958.9650143
491,1580.232609,1325.292277,942.8649379
492,1580.232609,1356.785104,969.2380757
493,1584.611291,1359.715453,953.8453247
494,1578.009586,1366.317158,978.7701293
495,1591.212996,1354.595763,974.3577653
496,1607.313072,1351.665415,988.2685008
497,1610.984429,1386.829599,993.4218725
498,1565.580866,1372.885181,981.7004779
499,1565.580866,1369.954832,979.4774548
500,1583.870283,1364.094135,1028.586056
501,1577.30226,1362.645802,1002.920244
502,1533.347031,1368.506499,1007.332608
503,1554.566797,1391.20828,1024.173692
504,1515.764939,1372.177855,1054.218186
505,1542.138077,1358.233438,1018.312995
506,1495.959824,1403.670683,1042.496792
507,1531.124008,1361.904794,1062.268225
508,1494.511491,1378.745878,1068.128922
509,1477.670407,1392.690296,1032.964738
510,1488.650793,1398.550993,1079.850316
511,1458.606299,1404.41169,1086.452021
512,1480.600755,1405.860024,1094.50206
513,1481.308081,1399.999326,1099.621749
514,1456.416958,1373.626189,1087.900355
515,1447.625912,1391.20828,1103.293106
516,1424.183123,1405.860024,1106.223454
517,1457.865292,1403.670683,1099.621749
518,1425.631456,1383.158242,1158.228722
519,1429.302813,1405.119016,1160.451745
520,1410.272388,1424.924131,1161.900078
521,1452.745602,1435.16351,1156.039381
522,1423.442116,1409.53138,1202.924959
523,1418.322426,1454.227617,1191.203565
524,1406.601031,1450.556261,1237.348136
525,1409.53138,1460.088315,1249.06953
526,1408.049365,1471.809709,1244.690848
527,1451.297269,1438.834866,1268.874645
528,1445.436571,1440.2832,1299.626465
529,1442.506223,1445.436571,1315.019216
530,1429.302813,1456.416958,1336.272664
531,1445.436571,1448.36692,1348.735066
532,1461.536648,1487.168778,1354.595763
533,1505.491878,1472.517035,1355.303089
534,1487.909786,1488.650793,1408.049365
535,1531.124008,1491.581142,1410.272388
536,1503.302537,1455.675951,1392.690296
537,1546.516759,1448.36692,1445.436571
538,1539.915054,1453.48661,1424.183123
539,1597.073693,1456.416958,1421.252775
540,1577.30226,1464.466997,1469.586686
541,1608.05408,1472.517035,1433.715177
542,1641.028923,1465.208004,1469.586686
543,1645.407605,1481.308081,1427.85448
544,1637.357567,1477.670407,1467.397345
545,1653.491325,1465.208004,1438.834866
546,1662.989697,1434.422502,1416.133085
547,1712.098298,1436.645525,1433.715177
548,1711.35729,1435.904518,1413.202736
549,1733.318064,1457.865292,1399.999326
550,1741.401784,1452.745602,1407.342039
551,1733.318064,1471.068702,1394.138629
552,1729.68039,1484.238429,1391.949288
553,1760.43221,1477.670407,1375.108204
554,1761.173217,1449.074246,1339.203013
555,1753.830505,1451.297269,1367.024484
556,1729.68039,1473.258042,1317.208557
557,1726.750041,1470.327694,1328.929951
558,1725.268026,1481.308081,1350.924407
559,1722.337677,1464.466997,1334.083323
560,1758.242869,1456.416958,1307.676503
561,1720.889344,1469.586686,1339.203013
562,1720.889344,1436.645525,1350.924407
563,1749.451823,1434.422502,1331.152974
564,1739.178761,1451.297269,1309.158518
565,1715.028647,1464.466997,1323.069254
566,1739.178761,1473.99905,1337.720997
567,1733.318064,1457.865292,1356.785104
568,1701.084229,1465.949012,1364.835143
569,1694.516206,1468.138353,1339.203013
570,1692.293183,1448.36692,1342.133361
571,1676.934114,1427.113472,1338.462005
572,1704.755585,1432.974169,1359.715453
573,1701.825237,1440.2832,1382.417234
574,1676.193107,1436.645525,1364.094135
575,1652.00931,1439.575874,1377.297545
576,1676.934114,1450.556261,1364.835143
577,1668.850394,1471.068702,1383.158242
578,1642.477256,1468.879361,1410.272388
579,1613.914777,1435.904518,1380.227894
580,1601.452375,1435.16351,1428.561805
581,1589.023655,1447.625912,1403.670683
582,1580.939935,1468.879361,1416.133085
583,1575.820245,1472.517035,1446.884905
584,1581.680942,1432.233161,1441.765215
585,1553.859471,1424.924131,1435.904518
586,1544.327418,1427.113472,1427.113472
587,1526.004318,1438.834866,1441.765215
588,1528.934667,1455.675951,1474.740058
589,1519.402613,1421.993782,1475.447383
590,1498.182847,1429.302813,1460.088315
591,1476.188391,1391.949288,1443.954556
592,1440.2832,1401.481342,1460.79564
593,1424.183123,1394.879637,1494.511491
594,1406.601031,1361.904794,1491.581142
595,1415.392077,1353.854756,1492.32215
596,1398.550993,1391.949288,1474.740058
597,1386.829599,1361.904794,1466.656337
598,1390.467273,1357.526112,1504.043544
599,1357.526112,1382.417234,1479.859747
600,1361.163786,1362.645802,1515.023931
601,1345.804718,1405.119016,1489.391801
602,1308.417511,1415.392077,1520.884628
603,1298.885457,1397.068978,1487.168778
604,1319.397898,1438.834866,1479.859747
605,1334.083323,1475.447383,1481.308081
606,1331.8603,1490.099127,1498.182847
607,1315.760223,1517.213272,1515.023931
608,1304.746154,1538.46672,1478.377732
609,1326.74061,1583.162958,1473.99905
610,1342.133361,1636.616559,1498.182847
611,1358.974445,1670.332409,1497.441839
612,1367.765491,1706.944926,1463.725989
613,1372.177855,1753.123179,1480.600755
614,1379.486886,1802.939106,1482.790096
615,1378.745878,1848.342669,1453.48661
616,1406.601031,1883.506853,1470.327694
617,1391.949288,1938.476151,1489.391801
618,1397.068978,1973.640335,1457.157966
619,1419.770759,2002.202814,1442.506223
620,1461.536648,2033.695641,1439.575874
621,1460.088315,2029.316959,1475.447383
622,1452.745602,2054.208082,1444.695564
623,1503.302537,2073.979515,1476.188391
624,1497.441839,2048.347384,1441.765215
625,1522.332962,2060.068779,1482.049088
626,1542.845402,2049.8294,1457.865292
627,1539.915054,1993.411768,1453.48661
628,1580.939935,1981.690373,1478.377732
629,1583.162958,1936.994136,1460.088315
630,1578.750594,1890.849565,1484.238429
631,1602.193383,1845.41232,1479.859747
632,1590.471988,1798.526742,1481.308081
633,1613.914777,1754.571512,1507.681218
634,1575.079237,1684.984153,1526.004318
635,1567.770207,1624.895164,1512.093583
636,1560.427494,1566.288191,1498.890173
637,1509.163234,1498.182847,1513.541916
638,1521.625636,1440.2832,1528.934667
639,1469.586686,1388.277932,1523.814977
640,1416.133085,1324.551269,1489.391801
641,1380.968901,1293.02476,1526.004318
642,1361.163786,1237.348136,1482.790096
643,1290.094411,1168.501783,1506.973893
644,1254.930227,1087.900355,1470.327694
645,1183.894534,1077.660976,1484.238429
646,1134.785933,1032.964738,1457.157966
647,1105.482447,969.9790834,1465.949012
648,1024.9147,942.8649379,1430.784828
649,986.8201675,957.5166811,1438.834866
650,917.9401333,935.5222252,1421.993782
651,900.3580414,895.9793596,1369.247507
652,830.7706817,889.3776546,1359.715453
653,821.9796358,887.9293213,1360.456461
654,772.9047165,909.8900951,1349.442392
655,748.7209197,934.8148996,1372.177855
656,727.4674714,919.4221487,1377.297545
657,692.3032877,950.1739684,1356.785104
658,710.6263873,947.2436198,1348.735066
659,689.3729391,969.9790834,1334.083323
660,694.4926287,1006.5916,1347.253051
661,692.3032877,997.8005544,1365.57615
662,711.367395,1013.193305,1386.088591
663,731.1388278,1064.457566,1385.347583
664,717.9354178,1040.307451,1378.038553
665,757.5119656,1059.337876,1381.676227
666,797.0548312,1082.039657,1437.352851
667,821.9796358,1139.939305,1421.252775
668,843.233084,1156.780389,1440.2832
669,860.0741681,1173.621473,1466.656337
670,866.6758731,1179.48217,1492.32215
671,923.8008306,1183.153527,1486.461452
672,970.6864089,1197.064262,1542.845402
673,973.6167576,1198.546278,1525.26331
674,989.0095085,1243.949841,1535.536372
675,1020.502336,1242.501507,1545.775751
676,1087.193029,1233.710461,1556.048812
677,1093.053726,1229.298097,1586.800632
678,1131.148259,1246.139181,1612.466444
679,1155.298373,1264.462281,1612.466444
680,1213.905346,1270.322978,1596.332686
681,1227.849764,1287.90507,1569.21854
682,1264.462281,1252.740886,1558.979161
683,1286.456737,1283.526388,1558.238153
684,1340.651346,1263.013948,1577.30226
685,1361.163786,1302.556813,1517.95428
686,1383.158242,1285.715729,1524.555985
687,1400.740334,1278.373017,1498.182847
688,1422.701108,1269.581971,1471.809709
689,1491.581142,1270.322978,1427.85448
690,1487.168778,1279.114024,1434.422502
691,1528.934667,1292.317434,1383.89925
692,1526.004318,1294.506775,1342.874369
693,1582.42195,1264.462281,1315.760223
694,1564.839858,1278.373017,1293.765767
695,1597.073693,1293.765767,1268.133637
696,1616.104118,1262.27294,1210.267672
697,1613.17377,1295.247783,1158.96973
698,1636.616559,1258.601584,1167.019768
699,1634.427218,1275.442668,1117.944849
700,1638.098574,1265.203289,1081.332332
701,1672.52175,1293.02476,1040.307451
702,1670.332409,1276.924683,1027.845049
703,1662.989697,1302.556813,956.7756734
704,1639.546907,1303.297821,967.0487347
705,1629.307528,1266.651622,929.6615279
706,1614.655785,1290.835419,885.7062982
707,1610.984429,1309.158518,912.8204437
708,1608.05408,1303.297821,895.9793596
709,1624.895164,1294.506775,882.7759496
710,1584.611291,1303.297821,863.7455245
711,1567.029199,1325.292277,871.7955627
712,1584.611291,1325.999603,883.5169573
713,1569.21854,1328.222626,895.9793596
714,1523.814977,1338.462005,876.1742446
715,1535.536372,1356.044097,935.5222252
716,1492.32215,1335.531656,909.8900951
717,1509.904242,1331.152974,975.098773
718,1465.949012,1346.512043,989.7505162
719,1489.391801,1361.163786,990.4915239
720,1435.904518,1359.715453,1008.780941
721,1465.949012,1367.024484,1068.128922
722,1416.840411,1389.759947,1092.312719
723,1412.461729,1366.317158,1123.064538
724,1442.506223,1367.024484,1123.064538
725,1431.492154,1415.392077,1186.083875
726,1403.670683,1416.840411,1192.68558
727,1391.20828,1392.690296,1257.15325
728,1408.049365,1410.979713,1256.412243
729,1434.422502,1419.770759,1306.969177
730,1399.258319,1394.879637,1316.467549
731,1409.53138,1419.770759,1312.088867
732,1402.929675,1422.701108,1354.595763
733,1408.049365,1416.840411,1389.018939
734,1414.65107,1454.934943,1401.481342
735,1429.302813,1430.784828,1393.397621
736,1432.974169,1421.252775,1412.461729
737,1437.352851,1432.974169,1433.715177
738,1433.715177,1470.327694,1453.48661
739,1452.745602,1443.954556,1457.157966
740,1476.188391,1433.715177,1446.884905
741,1441.765215,1470.327694,1460.79564
742,1463.018663,1443.213548,1460.088315
743,1464.466997,1437.352851,1452.745602
744,1485.720445,1480.600755,1448.36692
745,1452.004594,1475.447383,1424.924131
746,1469.586686,1478.377732,1405.119016
747,1487.909786,1467.397345,1399.999326
748,1463.725989,1449.074246,1394.879637
749,1453.48661,1493.029475,1410.272388
750,1489.391801,1465.208004,1427.113472
751,1463.725989,1468.138353,1398.550993
752,1446.143897,1515.023931,1391.949288
753,1484.979437,1479.859747,1379.486886
754,1460.088315,1528.934667,1362.645802
755,1459.347307,1495.252498,1356.044097
756,1459.347307,1544.327418,1347.994058
757,1443.954556,1533.347031,1382.417234
758,1481.308081,1520.884628,1364.835143
759,1459.347307,1548.7061,1349.442392
760,1461.536648,1573.630904,1334.790648
761,1452.004594,1577.30226,1334.790648
762,1480.600755,1553.118464,1362.645802
763,1461.536648,1575.079237,1351.665415
764,1465.208004,1560.427494,1317.949564
765,1486.461452,1594.143345,1315.760223
766,1464.466997,1558.979161,1332.601308
767,1499.63118,1600.74505,1321.620921
768,1484.238429,1571.441563,1302.556813
769,1475.447383,1590.471988,1307.676503
770,1505.491878,1615.396793,1309.158518
771,1480.600755,1590.471988,1353.854756
772,1517.213272,1598.522026,1358.974445
773,1499.63118,1580.939935,1338.462005
774,1509.163234,1599.263034,1346.512043
775,1508.422226,1584.611291,1375.108204
776,1523.814977,1557.497145,1380.227894
777,1509.904242,1575.820245,1391.20828
778,1520.143621,1553.118464,1388.277932
779,1556.048812,1538.46672,1373.626189
780,1518.695288,1557.497145,1372.885181
781,1552.377456,1515.764939,1421.252775
782,1533.347031,1484.238429,1402.929675
783,1555.307804,1509.904242,1392.690296
784,1520.143621,1465.208004,1400.740334
785,1526.004318,1443.213548,1422.701108
786,1553.118464,1423.442116,1411.720721
787,1528.193659,1421.993782,1461.536648
788,1518.695288,1408.049365,1431.492154
789,1546.516759,1383.158242,1473.99905
790,1532.606023,1375.81553,1442.506223
791,1526.004318,1364.094135,1483.531104
792,1537.725713,1353.854756,1454.227617
793,1572.889896,1358.233438,1465.208004
794,1562.650517,1356.044097,1478.377732
795,1576.561253,1356.044097,1493.029475
796,1612.466444,1411.720721,1465.949012
797,1643.959272,1426.372464,1492.32215
798,1670.332409,1424.183123,1485.720445
799,1698.894888,1492.32215,1479.859747
800,1750.19283,1506.973893,1506.232885
801,1804.387439,1541.397069,1476.188391
802,1821.969531,1594.884352,1492.32215
803,1890.108558,1646.88962,1490.099127
804,1918.671036,1677.64144,1482.790096
805,1937.735144,1738.471436,1518.695288
806,2001.461806,1761.914225,1487.168778
807,2020.525913,1839.551623,1489.391801
808,2046.899051,1835.913949,1489.391801
809,2063.740135,1869.596117,1491.581142
810,2099.645327,1910.620998,1507.681218
811,2109.884706,1916.481695,1533.347031
812,2125.277457,1893.779914,1547.257766
813,2105.506024,1901.088945,1516.472264
814,2131.138154,1890.849565,1520.143621
815,2107.695365,1876.197822,1524.555985
816,2093.043622,1830.760577,1540.656061
817,2076.909863,1802.939106,1539.915054
818,2029.316959,1772.894612,1552.377456
819,1988.999404,1726.750041,1592.661329
820,1950.904871,1666.661053,1580.232609
821,1901.088945,1616.845126,1581.680942
822,1861.546079,1606.605747,1573.630904
823,1835.913949,1532.606023,1585.352299
824,1745.039459,1465.208004,1582.42195
825,1698.15388,1430.784828,1558.979161
826,1645.407605,1364.094135,1560.427494
827,1580.939935,1325.999603,1583.162958
828,1536.984705,1291.576427,1591.212996
829,1479.11874,1260.790925,1562.650517
830,1444.695564,1209.526664,1542.845402
831,1386.088591,1175.810814,1534.054356
832,1327.481618,1191.203565,1556.78982
833,1306.22817,1161.159071,1554.566797
834,1290.835419,1147.248335,1550.188115
835,1216.835695,1118.685857,1499.63118
836,1231.487438,1113.566167,1516.472264
837,1197.064262,1093.053726,1523.814977
838,1171.432132,1098.914424,1486.461452
839,1151.660699,1066.680589,1506.973893
840,1112.825159,1056.407527,1527.486333
841,1120.875197,1079.850316,1497.441839
842,1139.198297,1054.959194,1522.332962
843,1134.078607,1090.830703,1505.491878
844,1130.407251,1050.54683,1557.497145
845,1126.735895,1090.123378,1558.238153
846,1126.735895,1079.109309,1550.188115
847,1133.3376,1065.198573,1574.371912
848,1137.008956,1073.248611,1602.934391
849,1143.576979,1071.800278,1643.218264
850,1150.178684,1051.287838,1696.705547
851,1135.526941,1059.337876,1719.407329
852,1163.382094,1028.586056,1784.616006
853,1159.710738,1068.128922,1807.317788
854,1180.964186,1058.596868,1836.621274
855,1190.462557,1052.736171,1886.437201
856,1178.741163,1049.098497,1941.4065
857,1186.083875,1035.895087,1958.988592
858,1199.994611,1022.725359,1983.879714
859,1241.019492,1024.9147,2005.133162
860,1238.089143,1003.661252,2015.372542
861,1268.874645,1021.243344,2024.163588
862,1286.456737,1020.502336,2013.183201
863,1289.387086,1022.725359,2005.87417
864,1279.855032,1008.073616,1988.999404
865,1301.10848,1049.805822,1969.227971
866,1319.397898,1046.168148,1937.735144
867,1337.013672,1062.268225,1892.297899
868,1315.760223,1065.198573,1847.635343
869,1319.397898,1068.128922,1827.122903
870,1338.462005,1111.343144,1736.248413
871,1361.163786,1149.437676,1680.571788
872,1372.885181,1168.501783,1618.327141
873,1371.436848,1161.900078,1544.327418
874,1323.069254,1180.964186,1487.168778
875,1318.690572,1208.785657,1410.979713
876,1318.690572,1256.412243,1347.253051
877,1302.556813,1280.59604,1293.02476
878,1312.088867,1271.804994,1252.740886
879,1310.606852,1279.114024,1202.183952
880,1306.969177,1339.203013,1126.735895
881,1249.810538,1320.879913,1084.970006
882,1251.999879,1369.247507,1062.268225
883,1241.7605,1356.785104,1003.661252
884,1210.267672,1394.138629,1002.212918
885,1221.248059,1360.456461,968.497068
886,1157.521397,1365.57615,943.6059456
887,1185.342868,1378.038553,937.0042406
888,1170.691124,1410.272388,901.0990492
889,1143.576979,1413.910062,928.2131947
890,1123.805546,1421.993782,952.3969915
891,1123.064538,1424.183123,919.4221487
892,1122.357213,1427.85448,931.1435433
893,1115.755508,1429.302813,969.9790834
894,1111.343144,1418.322426,978.0291216
895,1076.919968,1408.049365,989.7505162
896,1080.591324,1402.188667,1053.477179
897,1114.273492,1446.143897,1051.287838
898,1120.13419,1402.188667,1094.50206
899,1127.476902,1408.790372,1121.616205
900,1137.008956,1448.36692,1132.596592
901,1140.64663,1405.119016,1142.128646
902,1123.064538,1421.993782,1137.716282
903,1175.810814,1448.36692,1196.323255
904,1180.964186,1410.272388,1168.501783
905,1171.432132,1416.840411,1221.989067
906,1229.298097,1446.884905,1193.392906
907,1211.716005,1406.601031,1235.158795
908,1254.930227,1413.202736,1209.526664
909,1233.710461,1432.233161,1245.431856
910,1283.526388,1444.695564,1263.013948
911,1304.038829,1441.024207,1221.248059
912,1274.735342,1409.53138,1246.139181
913,1319.397898,1408.049365,1266.651622
914,1312.829875,1414.65107,1243.208833
915,1324.551269,1428.561805,1227.849764
916,1350.924407,1436.645525,1269.581971
917,1372.885181,1457.157966,1236.64081
918,1381.676227,1426.372464,1251.292553
919,1395.620644,1419.063434,1234.417787
920,1400.740334,1443.213548,1286.456737
921,1408.790372,1465.208004,1254.930227
922,1421.252775,1422.701108,1304.038829
923,1425.631456,1438.093859,1273.253327
924,1406.601031,1465.208004,1302.556813
925,1403.670683,1441.765215,1323.810262
926,1417.581418,1443.213548,1356.785104
927,1434.422502,1432.974169,1364.094135
928,1432.974169,1438.834866,1360.456461
929,1420.511767,1466.656337,1358.233438
930,1438.093859,1476.188391,1380.227894
931,1452.004594,1459.347307,1423.442116
932,1474.740058,1464.466997,1436.645525
933,1479.11874,1468.138353,1444.695564
934,1461.536648,1478.377732,1443.213548
935,1449.815253,1509.904242,1440.2832
936,1495.252498,1528.934667,1434.422502
937,1468.879361,1534.795364,1427.85448
938,1482.049088,1536.984705,1437.352851
939,1485.720445,1534.054356,1472.517035
940,1490.840134,1509.904242,1460.088315
941,1460.79564,1506.232885,1443.954556
942,1484.238429,1515.764939,1424.183123
943,1490.840134,1545.775751,1422.701108
944,1467.397345,1528.193659,1415.392077
945,1490.099127,1501.820521,1411.720721
946,1455.675951,1517.213272,1413.202736
947,1486.461452,1536.277379,1403.670683
948,1484.979437,1509.163234,1384.606575
949,1457.157966,1488.650793,1375.108204
950,1490.099127,1484.238429,1365.57615
951,1450.556261,1480.600755,1355.303089
952,1462.277656,1503.302537,1364.094135
953,1464.466997,1494.511491,1335.531656
954,1429.302813,1467.397345,1325.292277
955,1418.322426,1463.725989,1338.462005
956,1425.631456,1479.11874,1330.411967
957,1449.074246,1502.561529,1330.411967
958,1430.784828,1501.113196,1351.665415
959,1411.720721,1480.600755,1342.133361
960,1403.670683,1478.377732,1336.272664
961,1434.422502,1482.790096,1347.253051
962,1408.049365,1463.725989,1326.74061
963,1416.133085,1468.138353,1313.5372
964,1431.492154,1471.068702,1337.720997
965,1409.53138,1490.840134,1329.670959
966,1420.511767,1528.934667,1320.879913
967,1418.322426,1524.555985,1340.651346
968,1446.143897,1511.352575,1360.456461
969,1416.133085,1561.168502,1342.133361
970,1416.840411,1536.984705,1323.069254
971,1419.063434,1569.21854,1328.222626
972,1397.809985,1607.313072,1335.531656
973,1427.113472,1599.263034,1364.094135
974,1394.879637,1613.914777,1380.227894
975,1416.133085,1629.307528,1386.829599
976,1380.227894,1657.870007,1354.595763
977,1360.456461,1652.00931,1375.81553
978,1397.809985,1651.268302,1400.740334
979,1389.759947,1670.332409,1376.556537
980,1374.367196,1684.984153,1415.392077
981,1367.024484,1660.800356,1426.372464
982,1366.317158,1677.64144,1432.974169
983,1352.37274,1654.198651,1436.645525
984,1343.581694,1683.502137,1405.119016
985,1308.417511,1657.128999,1438.834866
986,1309.158518,1635.168226,1444.695564
987,1317.208557,1641.028923,1427.113472
988,1321.620921,1595.591678,1441.024207
989,1322.328246,1610.984429,1432.233161
990,1332.601308,1578.009586,1427.85448
991,1356.785104,1551.636448,1446.884905
992,1376.556537,1521.625636,1454.227617
993,1428.561805,1508.422226,1436.645525
994,1454.227617,1504.043544,1437.352851
995,1470.327694,1481.308081,1448.36692
996,1482.049088,1429.302813,1495.959824
997,1529.675674,1439.575874,1493.029475
998,1563.357843,1432.233161,1465.949012
999,1608.05408,1388.277932,1516.472264
1000,1665.920045,1400.740334,1493.770483
1001,1739.178761,1353.113748,1487.168778
1002,1756.760853,1373.626189,1524.555985
1003,1820.521198,1334.790648,1522.332962
1004,1865.217435,1361.163786,1551.636448
1005,1919.412044,1321.620921,1537.725713
1006,1964.849289,1360.456461,1523.073969
1007,1999.272465,1326.74061,1545.068425
1008,2025.645603,1376.556537,1551.636448
1009,2064.481143,1388.277932,1564.839858
1010,2068.859825,1361.163786,1591.212996
1011,2112.815055,1381.676227,1569.959548
1012,2087.923932,1410.272388,1582.42195
1013,2099.645327,1468.138353,1616.104118
1014,2100.352652,1493.770483,1589.023655
1015,2093.784629,1518.695288,1617.586134
1016,2071.049166,1509.904242,1636.616559
1017,2040.297346,1563.357843,1632.237877
1018,1967.779638,1542.845402,1629.307528
1019,1924.531734,1600.004042,1641.028923
1020,1904.760301,1576.561253,1655.680666
1021,1854.203366,1602.934391,1666.661053
1022,1783.167673,1622.705823,1686.432486
1023,1711.35729,1583.870283,1697.446555
1024,1675.452099,1594.143345,1723.078685
1025,1574.371912,1563.357843,1750.900156
1026,1544.327418,1580.939935,1775.083953
1027,1476.929399,1537.725713,1769.223256
1028,1372.885181,1515.023931,1774.376627
1029,1344.322702,1482.790096,1782.426665
1030,1275.442668,1447.625912,1812.47116
1031,1206.596316,1369.954832,1823.451547
1032,1150.178684,1351.665415,1814.660501
1033,1050.54683,1281.303365,1805.128447
1034,1041.755784,1238.089143,1830.053252
1035,977.2881139,1183.894534,1820.521198
1036,933.3328842,1136.267948,1794.889068
1037,906.2187387,1101.844772,1768.51593
1038,835.8903713,1056.407527,1787.546355
1039,841.0100609,1030.034389,1761.914225
1040,783.8851034,980.2184625,1733.318064
1041,802.9155285,944.3132711,1695.964539
1042,787.5564597,906.2187387,1671.780743
1043,769.9743679,854.9544785,1662.989697
1044,747.2389043,800.7261875,1618.327141
1045,778.0244061,816.8599462,1563.357843
1046,769.2333602,771.4227011,1564.839858
1047,769.9743679,782.403088,1489.391801
1048,805.8458771,773.612042,1487.168778
1049,853.4724631,728.2084791,1453.48661
1050,857.8848272,762.6316552,1419.063434
1051,857.8848272,763.3726629,1379.486886
1052,887.9293213,775.8350652,1358.233438
1053,926.0238537,778.7654138,1342.874369
1054,956.7756734,807.3278925,1277.665691
1055,987.5611752,842.4920763,1281.303365
1056,1032.964738,831.5116894,1284.233714
1057,1052.736171,846.1634326,1235.158795
1058,1101.103765,875.4669191,1260.790925
1059,1125.994887,900.3580414,1265.944296
1060,1140.64663,957.5166811,1264.462281
1061,1178.033837,997.0595467,1273.253327
1062,1202.924959,986.0791598,1276.924683
1063,1236.64081,1028.586056,1299.626465
1064,1233.710461,1062.268225,1309.158518
1065,1298.178132,1068.86993,1307.676503
1066,1276.924683,1112.825159,1326.74061
1067,1342.133361,1151.660699,1329.670959
1068,1317.208557,1169.950117,1381.676227
1069,1371.436848,1173.621473,1388.277932
1070,1353.113748,1189.014224,1427.85448
1071,1368.506499,1251.999879,1416.133085
1072,1389.018939,1261.531932,1418.322426
1073,1413.202736,1281.303365,1450.556261
1074,1417.581418,1277.665691,1484.979437
1075,1378.745878,1295.247783,1449.815253
1076,1394.879637,1306.22817,1492.32215
1077,1413.910062,1328.929951,1449.815253
1078,1398.550993,1346.512043,1446.143897
1079,1374.367196,1374.367196,1465.949012
1080,1397.809985,1383.89925,1457.865292
1081,1408.790372,1389.759947,1418.322426
1082,1391.20828,1394.138629,1401.481342
1083,1356.044097,1399.999326,1391.949288
1084,1371.436848,1403.670683,1328.222626
1085,1388.277932,1372.885181,1307.676503
1086,1369.954832,1402.188667,1290.835419
1087,1328.929951,1389.759947,1208.044649
1088,1345.06371,1372.177855,1202.183952
1089,1313.5372,1406.601031,1151.660699
1090,1340.651346,1383.89925,1098.173416
1091,1317.208557,1373.626189,1052.736171
1092,1282.044373,1377.297545,1020.502336
1093,1317.208557,1385.347583,934.0738919
1094,1273.253327,1420.511767,927.4721869
1095,1306.22817,1421.252775,878.3972677
1096,1274.735342,1406.601031,833.7010303
1097,1264.462281,1414.65107,795.606498
1098,1279.855032,1410.272388,728.2084791
1099,1264.462281,1389.018939,687.1835981
1100,1284.974722,1421.993782,661.551468
1101,1298.178132,1422.701108,665.9301499
1102,1263.013948,1419.770759,613.1838743
1103,1298.178132,1414.65107,602.2034875
1104,1278.373017,1419.063434,626.3872843
1105,1300.367472,1419.063434,584.6213956
1106,1298.178132,1412.461729,621.9749203
1107,1294.506775,1413.910062,589.7410852
1108,1318.690572,1410.272388,626.3872843
1109,1335.531656,1392.690296,652.7604221
1110,1306.22817,1399.258319,662.9998013
1111,1334.083323,1419.770759,659.3284449
1112,1362.645802,1415.392077,678.3925522
1113,1371.436848,1405.119016,728.9494869
1114,1379.486886,1397.809985,787.5564597
1115,1383.89925,1420.511767,818.3082794
1116,1367.024484,1418.322426,848.3527736
1117,1364.835143,1401.481342,879.1045932
1118,1396.32797,1393.397621,934.8148996
1119,1359.715453,1430.043821,955.3273402
1120,1359.715453,1402.188667,1006.5916
1121,1392.690296,1442.506223,1052.736171
1122,1377.297545,1422.701108,1076.919968
1123,1383.158242,1405.119016,1079.850316
1124,1383.158242,1405.119016,1140.64663
1125,1412.461729,1444.695564,1191.203565
1126,1374.367196,1438.834866,1219.058718
1127,1422.701108,1428.561805,1248.362205
1128,1383.89925,1394.138629,1277.665691
1129,1427.85448,1402.188667,1288.646078
1130,1412.461729,1409.53138,1311.347859
1131,1413.910062,1426.372464,1337.720997
1132,1428.561805,1395.620644,1369.247507
1133,1416.133085,1389.018939,1411.720721
1134,1468.879361,1385.347583,1415.392077
1135,1438.093859,1379.486886,1453.48661
1136,1487.909786,1358.974445,1470.327694
1137,1471.809709,1394.879637,1443.213548
1138,1507.681218,1386.088591,1467.397345
1139,1477.670407,1383.158242,1501.820521
1140,1498.182847,1370.69584,1489.391801
1141,1530.416682,1350.924407,1483.531104
1142,1503.302537,1352.37274,1502.561529
1143,1542.138077,1363.386809,1493.029475
1144,1559.720169,1389.018939,1501.820521
1145,1529.675674,1393.397621,1499.63118
1146,1534.054356,1376.556537,1491.581142
1147,1536.984705,1372.177855,1500.372188
1148,1563.357843,1373.626189,1503.302537
1149,1578.009586,1385.347583,1465.949012
1150,1576.561253,1403.670683,1474.740058
1151,1583.870283,1422.701108,1486.461452
1152,1540.656061,1428.561805,1485.720445
1153,1536.984705,1438.834866,1441.765215
1154,1548.7061,1449.815253,1444.695564
1155,1564.09885,1454.227617,1455.675951
1156,1544.327418,1460.79564,1436.645525
1157,1551.636448,1454.227617,1430.784828
1158,1504.043544,1501.113196,1447.625912
1159,1520.884628,1515.023931,1435.16351
1160,1476.929399,1488.650793,1410.272388
1161,1487.168778,1532.606023,1394.138629
1162,1439.575874,1507.681218,1427.85448
1163,1448.36692,1532.606023,1390.467273
1164,1446.884905,1517.95428,1429.302813
1165,1395.620644,1513.541916,1396.32797
1166,1399.999326,1555.307804,1408.049365
1167,1368.506499,1546.516759,1404.41169
1168,1349.442392,1516.472264,1426.372464
1169,1334.083323,1544.327418,1404.41169
1170,1339.203013,1515.764939,1432.974169
1171,1338.462005,1560.427494,1453.48661
1172,1342.874369,1524.555985,1425.631456
1173,1355.303089,1562.650517,1448.36692
1174,1378.038553,1523.073969,1448.36692
1175,1381.676227,1546.516759,1475.447383
1176,1388.277932,1550.929123,1442.506223
1177,1410.272388,1549.447107,1473.258042
1178,1471.068702,1545.775751,1498.182847
1179,1499.63118,1520.143621,1502.561529
1180,1500.372188,1526.004318,1504.043544
1181,1572.148889,1559.720169,1494.511491
1182,1588.282647,1533.347031,1498.890173
1183,1646.88962,1567.029199,1531.124008
1184,1662.282371,1578.750594,1544.327418
1185,1679.864463,1569.21854,1528.193659
1186,1712.098298,1602.193383,1538.46672
1187,1775.083953,1643.218264,1534.054356
1188,1779.496317,1649.819969,1572.889896
1189,1830.760577,1695.223532,1554.566797
1190,1829.312244,1727.457367,1556.048812
1191,1828.571236,1775.824961,1555.307804
1192,1865.217435,1829.312244,1594.884352
1193,1862.994412,1874.008481,1600.74505
1194,1861.546079,1950.197546,1596.332686
1195,1871.785458,1968.486963,1594.143345
1196,1841.033638,2024.163588,1564.09885
1197,1840.292631,2063.740135,1565.580866
1198,1841.774646,2110.625714,1575.820245
1199,1791.958719,2157.511292,1555.307804
1200,1764.103566,2170.68102,1549.447107
1201,1755.31252,2198.536173,1564.839858
1202,1725.268026,2220.530629,1563.357843
1203,1687.914501,2211.739583,1533.347031
1204,1663.730704,2215.377257,1523.073969
1205,1611.725436,2224.168303,1544.327418
1206,1573.630904,2172.163035,1554.566797
1207,1575.820245,2169.232687,1558.238153
1208,1516.472264,2102.575675,1542.845402
1209,1513.541916,2076.909863,1511.352575
1210,1480.600755,2034.436649,1545.775751
1211,1468.879361,1968.486963,1508.422226
1212,1415.392077,1911.362006,1552.377456
1213,1395.620644,1835.172941,1511.352575
1214,1395.620644,1780.237325,1547.257766
1215,1405.860024,1707.685934,1517.95428
1216,1350.183399,1643.218264,1509.163234
1217,1346.512043,1608.05408,1523.073969
1218,1366.317158,1545.775751,1501.820521
1219,1342.874369,1497.441839,1526.745326
1220,1329.670959,1435.16351,1506.973893
1221,1331.8603,1383.158242,1481.308081
1222,1310.606852,1359.715453,1464.466997
1223,1336.272664,1330.411967,1460.088315
1224,1308.417511,1265.203289,1453.48661
1225,1329.670959,1263.013948,1463.725989
1226,1312.088867,1239.571159,1443.213548
1227,1319.397898,1216.128369,1436.645525
1228,1293.02476,1192.68558,1433.715177
1229,1327.481618,1186.824883,1404.41169
1230,1309.899526,1169.950117,1376.556537
1231,1295.955108,1172.880465,1372.885181
1232,1319.397898,1166.312443,1378.745878
1233,1296.696116,1163.382094,1378.745878
1234,1266.651622,1164.089419,1426.372464
1235,1306.969177,1156.039381,1415.392077
1236,1276.924683,1146.507328,1462.277656
1237,1275.442668,1164.830427,1449.815253
1238,1295.955108,1153.85004,1504.75087
1239,1262.27294,1123.064538,1547.257766
1240,1257.15325,1160.451745,1571.441563
1241,1293.02476,1121.616205,1632.978885
1242,1293.02476,1124.546554,1704.014578
1243,1300.367472,1137.008956,1778.014301
1244,1266.651622,1106.964462,1836.621274
1245,1308.417511,1099.621749,1920.894059
1246,1303.297821,1117.203841,2001.461806
1247,1314.278208,1101.103765,2081.322227
1248,1309.899526,1052.028845,2158.959625
1249,1321.620921,1045.42714,2260.814502
1250,1367.024484,1060.078884,2321.610816
1251,1366.317158,1059.337876,2390.49085
1252,1347.994058,1049.098497,2449.805149
1253,1368.506499,1016.864662,2477.660302
1254,1402.929675,1024.173692,2520.133516
1255,1427.113472,1054.959194,2548.729677
1256,1425.631456,1013.934313,2548.729677
1257,1437.352851,1034.446754,2534.077934
1258,1446.143897,1063.009232,2528.924562
1259,1439.575874,1063.009232,2482.038984
1260,1417.581418,1094.50206,2463.008559
1261,1424.183123,1074.730627,2408.780268
1262,1435.904518,1122.357213,2345.794613
1263,1434.422502,1147.989343,2276.914579
1264,1457.157966,1170.691124,2177.282725
1265,1430.043821,1193.392906,2096.714978
1266,1413.910062,1216.128369,2028.575952
1267,1425.631456,1238.830151,1923.0834
1268,1430.784828,1243.949841,1812.47116
1269,1405.119016,1241.019492,1725.268026
1270,1379.486886,1298.885457,1641.028923
1271,1372.885181,1274.735342,1569.959548
1272,1391.20828,1325.999603,1481.308081
1273,1400.740334,1323.810262,1378.038553
1274,1358.233438,1328.222626,1304.746154
1275,1349.442392,1361.904794,1243.208833
1276,1346.512043,1337.720997,1180.223178
1277,1372.885181,1354.595763,1075.471635
1278,1379.486886,1364.835143,1056.407527
1279,1337.720997,1345.06371,1005.850593
1280,1346.512043,1321.620921,945.7952865
1281,1361.163786,1316.467549,915.0097847
1282,1371.436848,1325.999603,884.9989727
1283,1376.556537,1342.133361,876.1742446
1284,1356.044097,1304.746154,859.3331604
1285,1354.595763,1313.5372,849.8011068
1286,1363.386809,1292.317434,841.7510686
1287,1384.606575,1268.133637,824.9099844
1288,1406.601031,1302.556813,803.6565362
1289,1416.840411,1258.601584,801.4671953
1290,1422.701108,1287.90507,810.2582412
1291,1428.561805,1250.551546,827.0993253
1292,1434.422502,1283.526388,871.7955627
1293,1432.974169,1288.646078,876.1742446
1294,1445.436571,1260.790925,880.5866086
1295,1445.436571,1276.183676,881.3276163
1296,1427.85448,1279.114024,885.7062982
1297,1416.133085,1247.621197,921.6114897
1298,1443.213548,1273.253327,931.1435433
1299,1448.36692,1296.696116,937.7452483
1300,1444.695564,1292.317434,925.282846
1301,1453.48661,1268.874645,980.9594702
1302,1448.36692,1304.038829,950.9149761
1303,1453.48661,1285.715729,995.6112135
1304,1435.16351,1284.233714,1025.655708
1305,1416.840411,1312.088867,1046.875474
1306,1424.924131,1273.994335,1063.009232
1307,1440.2832,1281.303365,1086.452021
1308,1458.606299,1329.670959,1103.293106
1309,1465.208004,1293.02476,1123.064538
1310,1460.088315,1315.760223,1112.825159
1311,1448.36692,1356.785104,1182.412519
1312,1467.397345,1366.317158,1175.810814
1313,1424.924131,1372.177855,1192.68558
1314,1426.372464,1386.829599,1254.222902
1315,1452.745602,1394.138629,1254.930227
1316,1449.815253,1397.809985,1287.90507
1317,1457.157966,1410.272388,1309.899526
1318,1463.018663,1414.65107,1335.531656
1319,1430.043821,1424.924131,1353.113748
1320,1421.252775,1427.85448,1369.247507
1321,1438.093859,1432.233161,1399.258319
1322,1427.113472,1430.043821,1379.486886
1323,1450.556261,1421.993782,1373.626189
1324,1424.924131,1413.202736,1369.954832
1325,1414.65107,1421.252775,1384.606575
1326,1445.436571,1430.043821,1389.018939
1327,1453.48661,1422.701108,1380.227894
1328,1419.063434,1408.049365,1367.765491
1329,1447.625912,1419.770759,1364.835143
1330,1453.48661,1434.422502,1360.456461
1331,1413.910062,1406.601031,1359.715453
1332,1414.65107,1403.670683,1359.715453
1333,1445.436571,1405.860024,1335.531656
1334,1442.506223,1402.188667,1330.411967
1335,1452.745602,1417.581418,1325.999603
1336,1433.715177,1411.720721,1275.442668
1337,1427.113472,1413.202736,1263.721273
1338,1452.745602,1424.924131,1268.874645
1339,1439.575874,1416.133085,1289.387086
1340,1431.492154,1411.720721,1247.621197
1341,1421.252775,1418.322426,1257.15325
1342,1437.352851,1426.372464,1244.690848
1343,1419.063434,1436.645525,1251.999879
1344,1417.581418,1443.954556,1249.810538
1345,1446.884905,1474.740058,1252.740886
1346,1427.113472,1440.2832,1274.735342
1347,1424.924131,1479.11874,1232.969454
1348,1437.352851,1483.531104,1260.083599
1349,1436.645525,1473.258042,1247.621197
1350,1398.550993,1470.327694,1260.790925
1351,1406.601031,1450.556261,1282.785381
1352,1423.442116,1476.929399,1251.999879
1353,1371.436848,1454.934943,1300.367472
1354,1390.467273,1453.48661,1271.063986
1355,1364.835143,1485.720445,1298.885457
1356,1374.367196,1482.790096,1317.208557
1357,1346.512043,1479.11874,1284.974722
1358,1317.949564,1453.48661,1334.083323
1359,1298.178132,1453.48661,1307.676503
1360,1315.760223,1482.049088,1317.949564
1361,1286.456737,1491.581142,1327.481618
1362,1251.999879,1460.088315,1344.322702
1363,1276.924683,1484.238429,1367.765491
1364,1263.721273,1502.561529,1373.626189
1365,1243.208833,1490.840134,1350.924407
1366,1223.4374,1487.168778,1381.676227
1367,1243.949841,1520.884628,1373.626189
1368,1257.860576,1485.720445,1383.89925
1369,1243.208833,1529.675674,1374.367196
1370,1227.849764,1501.820521,1359.715453
1371,1264.462281,1506.232885,1362.645802
1372,1276.183676,1535.536372,1411.720721
1373,1272.512319,1504.75087,1404.41169
1374,1277.665691,1526.745326,1380.968901
1375,1280.59604,1500.372188,1418.322426
1376,1292.317434,1517.95428,1396.32797
1377,1322.328246,1473.99905,1422.701108
1378,1355.303089,1452.004594,1410.272388
1379,1367.024484,1471.068702,1419.770759
1380,1391.949288,1430.784828,1442.506223
1381,1408.790372,1422.701108,1419.063434
1382,1449.815253,1402.188667,1415.392077
1383,1476.188391,1392.690296,1438.093859
1384,1515.023931,1377.297545,1421.993782
1385,1507.681218,1372.177855,1451.297269
1386,1532.606023,1352.37274,1411.720721
1387,1559.720169,1345.804718,1449.074246
1388,1611.725436,1357.526112,1425.631456
1389,1598.522026,1362.645802,1431.492154
1390,1607.313072,1317.949564,1445.436571
1391,1646.88962,1323.069254,1404.41169
1392,1622.705823,1334.083323,1443.213548
1393,1643.959272,1350.183399,1400.740334
1394,1643.959272,1378.745878,1427.85448
1395,1610.984429,1388.277932,1399.258319
1396,1624.187839,1405.860024,1424.924131
1397,1591.954004,1405.119016,1392.690296
1398,1569.959548,1416.840411,1431.492154
1399,1570.700555,1455.675951,1402.929675
1400,1537.725713,1482.790096,1386.829599
1401,1501.820521,1508.422226,1416.133085
1402,1445.436571,1524.555985,1394.138629
1403,1450.556261,1522.332962,1381.676227
1404,1369.954832,1566.288191,1419.770759
1405,1371.436848,1605.123731,1389.018939
1406,1306.969177,1627.825513,1421.252775
1407,1271.063986,1654.939658,1378.038553
1408,1256.412243,1648.337953,1421.252775
1409,1200.735619,1690.84485,1391.949288
1410,1166.312443,1709.875275,1386.088591
1411,1145.800002,1704.014578,1402.188667
1412,1079.109309,1688.655509,1380.968901
1413,1030.775397,1690.103842,1416.133085
1414,1041.755784,1712.805624,1383.158242
1415,1001.471911,1706.944926,1413.202736
1416,984.6308266,1706.944926,1417.581418
1417,955.3273402,1662.989697,1410.979713
1418,951.6559838,1672.52175,1408.790372
1419,942.1239302,1614.655785,1414.65107
1420,915.0097847,1578.009586,1423.442116
1421,926.7311792,1569.959548,1422.701108
1422,928.9542024,1523.814977,1430.043821
1423,923.8008306,1505.491878,1484.238429
1424,912.8204437,1444.695564,1468.879361
1425,927.4721869,1394.138629,1482.790096
1426,975.098773,1355.303089,1507.681218
1427,975.8397807,1320.879913,1534.054356
1428,991.1988494,1272.512319,1534.795364
1429,997.0595467,1205.1143,1553.859471
1430,1049.098497,1135.526941,1560.427494
1431,1071.800278,1113.566167,1581.680942
1432,1071.059271,1070.318263,1586.093306
1433,1095.984075,1015.382646,1597.814701
1434,1131.148259,963.3773784,1616.845126
1435,1174.362481,911.3721105,1632.978885
1436,1204.406975,887.1883136,1624.187839
1437,1213.198021,873.2438959,1619.775475
1438,1282.785381,846.8707582,1607.313072
1439,1281.303365,824.1689767,1605.864739
1440,1328.929951,808.0689002,1598.522026
1441,1328.929951,768.4923525,1593.402337
1442,1357.526112,760.4423142,1597.073693
1443,1405.119016,783.8851034,1570.700555
1444,1419.770759,751.6512683,1557.497145
1445,1427.113472,757.5119656,1562.650517
1446,1463.725989,778.7654138,1547.257766
1447,1441.024207,810.9992489,1533.347031
1448,1451.297269,834.442038,1526.745326
1449,1473.258042,827.0993253,1521.625636
1450,1476.929399,876.9152523,1523.073969
1451,1476.188391,898.9097082,1518.695288
1452,1481.308081,898.1687005,1545.068425
1453,1501.113196,947.2436198,1550.929123
1454,1503.302537,984.6308266,1572.148889
1455,1517.213272,989.7505162,1564.09885
1456,1488.650793,1014.641639,1576.561253
1457,1466.656337,1071.800278,1578.750594
1458,1463.018663,1109.894811,1628.566521
1459,1451.297269,1119.426864,1654.939658
1460,1441.765215,1178.033837,1656.421674
1461,1447.625912,1200.735619,1717.958995
1462,1442.506223,1219.766044,1718.666321
1463,1419.063434,1284.974722,1769.964263
1464,1431.492154,1298.885457,1810.989144
1465,1437.352851,1345.06371,1841.774646
1466,1411.720721,1353.113748,1859.356738
1467,1389.018939,1369.954832,1880.576504
1468,1378.038553,1387.536924,1897.45127
1469,1387.536924,1433.715177,1904.019293
1470,1399.999326,1477.670407,1883.506853
1471,1387.536924,1468.879361,1868.147784
1472,1394.138629,1507.681218,1857.874723
1473,1411.720721,1489.391801,1840.292631
1474,1375.81553,1504.043544,1825.640887
1475,1406.601031,1528.193659,1806.610462
1476,1409.53138,1528.934667,1767.033915
1477,1386.088591,1523.073969,1699.635896
1478,1386.088591,1526.004318,1660.059348
1479,1397.809985,1536.277379,1600.74505
1480,1400.740334,1550.929123,1528.934667
1481,1407.342039,1521.625636,1493.029475
1482,1422.701108,1543.58641,1402.188667
1483,1430.784828,1512.83459,1368.506499
1484,1438.093859,1514.282923,1298.885457
1485,1481.308081,1490.840134,1191.944573
1486,1454.227617,1504.043544,1115.755508
1487,1454.934943,1464.466997,1077.660976
1488,1471.068702,1450.556261,997.0595467
1489,1495.959824,1435.16351,902.5810646
1490,1502.561529,1411.720721,843.9404095
1491,1484.979437,1420.511767,810.2582412
1492,1460.79564,1421.993782,717.2280923
1493,1468.138353,1403.670683,695.9746441
1494,1484.979437,1384.606575,634.4373225
1495,1495.959824,1367.024484,621.2339126
1496,1490.099127,1369.247507,577.2786829
1497,1454.934943,1348.735066,525.273415
1498,1464.466997,1355.303089,537.7358173
1499,1487.168778,1353.854756,529.6857791
1500,1492.32215,1352.37274,515.0340358
1501,1449.815253,1356.785104,556.7662424
1502,1454.227617,1358.974445,580.2090315
1503,1476.929399,1337.013672,600.721472
1504,1488.650793,1342.133361,619.0445716
1505,1491.581142,1354.595763,619.7855793
1506,1487.168778,1361.163786,671.7908472
1507,1451.297269,1375.81553,735.5175097
1508,1464.466997,1410.979713,759.7013065
1509,1474.740058,1419.063434,819.7902948
1510,1484.238429,1422.701108,846.1634326
1511,1498.890173,1393.397621,864.45285
1512,1474.740058,1435.904518,906.2187387
1513,1468.879361,1413.910062,967.0487347
1514,1477.670407,1453.48661,1035.154079
1515,1490.099127,1419.770759,1072.541286
1516,1482.049088,1435.904518,1104.775121
1517,1493.770483,1440.2832,1131.855584
1518,1515.023931,1440.2832,1186.083875
1519,1520.884628,1481.308081,1211.716005
1520,1515.764939,1458.606299,1228.55709
1521,1526.745326,1449.815253,1214.646354
1522,1520.884628,1459.347307,1235.158795
1523,1497.441839,1471.809709,1250.551546
1524,1505.491878,1492.32215,1268.874645
1525,1530.416682,1472.517035,1317.949564
1526,1542.845402,1461.536648,1304.746154
1527,1554.566797,1498.890173,1306.969177
1528,1528.193659,1482.049088,1339.203013
1529,1545.068425,1507.681218,1329.670959
1530,1563.357843,1516.472264,1319.397898
1531,1545.775751,1490.099127,1331.152974
1532,1521.625636,1541.397069,1323.069254
1533,1528.193659,1531.124008,1363.386809
1534,1544.327418,1535.536372,1330.411967
1535,1547.998774,1531.865015,1363.386809
